id,time,x,y,z,pulse
0,0.0,-0.04,0.07,0.59,332.0
1,32.0,-0.05,0.08,0.58,333.0
2,64.0,-0.04,0.06,0.0,-0.06
3,32.0,-0.06,0.05,0.58,334.0
4,64.0,-0.06,0.06,0.58,334.0
5,96.0,-0.06,0.06,0.59,333.0
6,129.0,-0.05,0.07,0.58,331.0
7,160.0,-0.05,0.08,0.59,332.0
8,193.0,-0.05,0.07,0.6,332.0
9,225.0,-0.05,0.07,0.59,332.0
10,257.0,-0.05,0.07,0.59,332.0
11,289.0,-0.05,0.07,0.59,333.0
12,321.0,-0.06,0.06,0.59,334.0
13,354.0,-0.06,0.06,0.58,334.0
14,386.0,-0.06,0.06,0.58,334.0
15,417.0,-0.06,0.05,0.57,333.0
16,450.0,-0.05,0.06,0.58,332.0
17,482.0,-0.07,0.05,0.57,331.0
18,515.0,-0.07,0.05,0.58,332.0
19,546.0,-0.06,0.08,0.58,331.0
20,579.0,-0.06,0.07,0.57,332.0
21,611.0,-0.05,0.07,0.58,333.0
22,643.0,-0.05,0.07,0.58,332.0
23,675.0,-0.03,0.07,0.59,331.0
24,707.0,-0.05,0.07,0.59,333.0
25,740.0,-0.05,0.06,0.57,334.0
26,772.0,-0.05,0.06,0.58,333.0
27,803.0,-0.05,0.06,0.58,332.0
28,836.0,-0.05,0.06,0.59,332.0
29,868.0,-0.06,0.06,0.58,335.0
30,901.0,-0.05,0.05,0.57,335.0
31,932.0,-0.06,0.06,0.58,335.0
32,965.0,-0.06,0.05,0.58,332.0
33,997.0,-0.06,0.04,0.58,330.0
34,1029.0,-0.06,0.06,0.57,332.0
35,1061.0,-0.05,0.07,0.59,334.0
36,1093.0,-0.03,0.08,0.59,333.0
37,1126.0,-0.04,0.08,0.58,332.0
38,1158.0,-0.05,0.07,0.6,331.0
39,1190.0,-0.04,0.08,0.59,332.0
40,1222.0,-0.05,0.08,0.58,334.0
41,1255.0,-0.04,0.06,0.59,335.0
42,1287.0,-0.05,0.06,0.59,333.0
43,1319.0,-0.07,0.06,0.58,333.0
44,1351.0,-0.06,0.05,0.56,331.0
45,1383.0,-0.06,0.07,0.58,333.0
46,1416.0,-0.06,0.06,0.59,334.0
47,1447.0,-0.06,0.06,0.59,334.0
48,1480.0,-0.07,0.06,0.58,334.0
49,1512.0,-0.05,0.05,0.59,333.0
50,1545.0,-0.05,0.06,0.57,334.0
51,1576.0,-0.05,0.08,0.59,338.0
52,1609.0,-0.05,0.08,0.58,348.0
53,1641.0,-0.05,0.08,0.58,347.0
54,1674.0,-0.04,0.07,0.59,343.0
55,1705.0,-0.05,0.05,0.57,338.0
56,1738.0,-0.05,0.07,0.59,334.0
57,1770.0,-0.04,0.06,0.57,331.0
58,1803.0,-0.05,0.07,0.6,324.0
59,1835.0,-0.06,0.04,0.57,318.0
60,1866.0,-0.06,0.05,0.58,320.0
61,1899.0,-0.05,0.06,0.59,325.0
62,1931.0,-0.06,0.06,0.58,331.0
63,1964.0,-0.07,0.05,0.59,334.0
64,1995.0,-0.06,0.06,0.57,333.0
65,2028.0,-0.05,0.07,0.59,334.0
66,2060.0,-0.05,0.06,0.57,333.0
67,2093.0,-0.04,0.08,0.58,333.0
68,2124.0,-0.04,0.07,0.58,333.0
69,2157.0,-0.05,0.06,0.58,334.0
70,2189.0,-0.05,0.07,0.57,332.0
71,2222.0,-0.06,0.06,0.58,333.0
72,2253.0,-0.05,0.05,0.59,332.0
73,2285.0,-0.06,0.06,0.58,335.0
74,2318.0,-0.07,0.05,0.58,334.0
75,2350.0,-0.05,0.06,0.59,334.0
76,2382.0,-0.06,0.05,0.58,331.0
77,2414.0,-0.06,0.06,0.59,333.0
78,2447.0,-0.06,0.05,0.57,334.0
79,2479.0,-0.05,0.05,0.59,333.0
80,2511.0,-0.06,0.08,0.58,333.0
81,2543.0,-0.05,0.06,0.58,333.0
82,2576.0,-0.05,0.08,0.59,331.0
83,2608.0,-0.03,0.07,0.58,332.0
84,2640.0,-0.05,0.08,0.59,332.0
85,2672.0,-0.05,0.07,0.59,334.0
86,2705.0,-0.05,0.07,0.57,333.0
87,2737.0,-0.05,0.06,0.58,333.0
88,2768.0,-0.06,0.06,0.59,333.0
89,2801.0,-0.05,0.05,0.57,332.0
90,2833.0,-0.08,0.05,0.58,334.0
91,2866.0,-0.06,0.06,0.59,334.0
92,2897.0,-0.05,0.05,0.57,334.0
93,2930.0,-0.07,0.06,0.57,333.0
94,2962.0,-0.06,0.06,0.57,332.0
95,2995.0,-0.05,0.07,0.58,333.0
96,3026.0,-0.05,0.08,0.57,334.0
97,3059.0,-0.05,0.07,0.58,334.0
98,3091.0,-0.04,0.08,0.59,332.0
99,3124.0,-0.04,0.07,0.59,332.0
100,3155.0,-0.06,0.07,0.6,332.0
101,3187.0,-0.05,0.06,0.58,333.0
102,3220.0,-0.05,0.07,0.58,334.0
103,3252.0,-0.06,0.06,0.57,334.0
104,3284.0,-0.06,0.06,0.57,333.0
105,3316.0,-0.07,0.04,0.58,332.0
106,3349.0,-0.06,0.05,0.58,333.0
107,3381.0,-0.06,0.06,0.57,336.0
108,3414.0,-0.05,0.06,0.59,334.0
109,3445.0,-0.05,0.06,0.59,332.0
110,3478.0,-0.05,0.04,0.57,332.0
111,3510.0,-0.04,0.07,0.59,333.0
112,3543.0,-0.04,0.07,0.57,333.0
113,3574.0,-0.04,0.08,0.59,333.0
114,3607.0,-0.06,0.06,0.58,333.0
115,3639.0,-0.06,0.07,0.58,331.0
116,3671.0,-0.05,0.05,0.59,333.0
117,3703.0,-0.05,0.08,0.59,333.0
118,3735.0,-0.05,0.06,0.58,332.0
119,3768.0,-0.05,0.06,0.58,333.0
120,3800.0,-0.06,0.06,0.58,331.0
121,3832.0,-0.06,0.06,0.57,332.0
122,3864.0,-0.06,0.06,0.57,333.0
123,3897.0,-0.06,0.06,0.58,335.0
124,3929.0,-0.05,0.07,0.58,335.0
125,3961.0,-0.06,0.05,0.58,335.0
126,3993.0,-0.04,0.06,0.57,333.0
127,4026.0,-0.04,0.08,0.58,330.0
128,4058.0,-0.04,0.08,0.59,331.0
129,4090.0,-0.04,0.06,0.57,332.0
130,4122.0,-0.05,0.08,0.58,333.0
131,4154.0,-0.05,0.06,0.58,333.0
132,4187.0,-0.05,0.07,0.59,334.0
133,4218.0,-0.06,0.07,0.6,334.0
134,4251.0,-0.06,0.07,0.58,334.0
135,4283.0,-0.06,0.06,0.57,334.0
136,4316.0,-0.07,0.04,0.58,335.0
137,4347.0,-0.06,0.05,0.57,334.0
138,4380.0,-0.06,0.05,0.58,333.0
139,4412.0,-0.06,0.06,0.56,333.0
140,4445.0,-0.06,0.06,0.57,335.0
141,4476.0,-0.05,0.07,0.59,333.0
142,4509.0,-0.04,0.07,0.59,331.0
143,4541.0,-0.04,0.08,0.58,331.0
144,4573.0,-0.05,0.07,0.57,332.0
145,4605.0,-0.05,0.07,0.59,333.0
146,4637.0,-0.06,0.06,0.57,333.0
147,4670.0,-0.05,0.07,0.58,333.0
148,4702.0,-0.05,0.06,0.58,333.0
149,4734.0,-0.06,0.06,0.59,334.0
150,4766.0,-0.06,0.05,0.56,332.0
151,4799.0,-0.06,0.06,0.58,334.0
152,4831.0,-0.07,0.05,0.58,333.0
153,4864.0,-0.05,0.07,0.58,333.0
154,4895.0,-0.05,0.06,0.58,331.0
155,4928.0,-0.06,0.05,0.58,332.0
156,4960.0,-0.05,0.07,0.59,334.0
157,4993.0,-0.05,0.07,0.59,334.0
158,5024.0,-0.04,0.08,0.59,331.0
159,5056.0,-0.05,0.08,0.6,332.0
160,5089.0,-0.05,0.07,0.59,333.0
161,5121.0,-0.04,0.08,0.59,334.0
162,5153.0,-0.05,0.06,0.58,334.0
163,5185.0,-0.06,0.08,0.58,335.0
164,5218.0,-0.05,0.06,0.59,332.0
165,5250.0,-0.05,0.06,0.57,330.0
166,5282.0,-0.06,0.06,0.58,331.0
167,5314.0,-0.06,0.05,0.57,333.0
168,5347.0,-0.06,0.06,0.58,333.0
169,5379.0,-0.07,0.05,0.58,333.0
170,5411.0,-0.05,0.06,0.59,334.0
171,5443.0,-0.05,0.07,0.58,333.0
172,5475.0,-0.04,0.07,0.57,332.0
173,5508.0,-0.04,0.07,0.57,333.0
174,5539.0,-0.04,0.08,0.58,334.0
175,5572.0,-0.05,0.06,0.59,332.0
176,5604.0,-0.05,0.06,0.56,332.0
177,5637.0,-0.04,0.08,0.59,331.0
178,5668.0,-0.06,0.06,0.58,332.0
179,5701.0,-0.06,0.05,0.57,334.0
180,5733.0,-0.05,0.05,0.59,333.0
181,5766.0,-0.05,0.06,0.58,332.0
182,5797.0,-0.05,0.05,0.57,332.0
183,5830.0,-0.06,0.04,0.57,333.0
184,5862.0,-0.06,0.06,0.59,334.0
185,5895.0,-0.05,0.06,0.59,336.0
186,5926.0,-0.05,0.08,0.59,333.0
187,5958.0,-0.03,0.06,0.58,330.0
188,5991.0,-0.04,0.07,0.57,331.0
189,6023.0,-0.04,0.08,0.58,332.0
190,6055.0,-0.05,0.08,0.6,334.0
191,6087.0,-0.04,0.07,0.58,333.0
192,6120.0,-0.05,0.07,0.58,332.0
193,6152.0,-0.06,0.07,0.59,333.0
194,6184.0,-0.06,0.07,0.59,334.0
195,6216.0,-0.06,0.07,0.59,333.0
196,6249.0,-0.06,0.05,0.58,333.0
197,6281.0,-0.06,0.06,0.58,334.0
198,6313.0,-0.05,0.04,0.58,332.0
199,6345.0,-0.06,0.06,0.58,331.0
200,6377.0,-0.06,0.05,0.58,332.0
201,6410.0,-0.05,0.07,0.58,335.0
202,6441.0,-0.04,0.08,0.59,335.0
203,6474.0,-0.05,0.08,0.57,331.0
204,6506.0,-0.05,0.07,0.59,330.0
205,6539.0,-0.05,0.07,0.6,332.0
206,6571.0,-0.05,0.08,0.59,334.0
207,6603.0,-0.06,0.07,0.6,335.0
208,6635.0,-0.05,0.08,0.6,333.0
209,6668.0,-0.04,0.06,0.58,330.0
210,6700.0,-0.06,0.07,0.59,332.0
211,6732.0,-0.07,0.06,0.57,332.0
212,6764.0,-0.05,0.05,0.57,333.0
213,6796.0,-0.06,0.06,0.59,334.0
214,6829.0,-0.05,0.05,0.57,332.0
215,6860.0,-0.07,0.05,0.57,332.0
216,6893.0,-0.05,0.07,0.59,333.0
217,6925.0,-0.04,0.07,0.59,333.0
218,6958.0,-0.04,0.08,0.6,333.0
219,6989.0,-0.03,0.07,0.58,332.0
220,7022.0,-0.06,0.07,0.6,332.0
221,7054.0,-0.05,0.06,0.59,332.0
222,7087.0,-0.04,0.07,0.58,334.0
223,7118.0,-0.05,0.06,0.58,335.0
224,7151.0,-0.05,0.07,0.58,333.0
225,7183.0,-0.06,0.06,0.59,331.0
226,7216.0,-0.06,0.06,0.59,331.0
227,7247.0,-0.05,0.05,0.57,331.0
228,7279.0,-0.06,0.07,0.59,333.0
229,7312.0,-0.06,0.06,0.57,334.0
230,7344.0,-0.06,0.06,0.58,334.0
231,7376.0,-0.04,0.05,0.58,333.0
232,7408.0,-0.05,0.07,0.58,330.0
233,7441.0,-0.04,0.08,0.59,333.0
234,7473.0,-0.03,0.08,0.6,335.0
235,7505.0,-0.05,0.07,0.59,336.0
236,7537.0,-0.05,0.06,0.58,334.0
237,7570.0,-0.06,0.07,0.59,334.0
238,7602.0,-0.05,0.08,0.59,333.0
239,7634.0,-0.06,0.07,0.6,334.0
240,7666.0,-0.06,0.06,0.56,332.0
241,7698.0,-0.06,0.07,0.58,331.0
242,7731.0,-0.07,0.07,0.59,330.0
243,7762.0,-0.07,0.05,0.57,332.0
244,7795.0,-0.08,0.06,0.59,335.0
245,7827.0,-0.06,0.06,0.59,335.0
246,7860.0,-0.05,0.05,0.57,334.0
247,7891.0,-0.03,0.07,0.58,333.0
248,7924.0,-0.04,0.08,0.59,332.0
249,7956.0,-0.03,0.09,0.59,334.0
250,7989.0,-0.04,0.08,0.58,333.0
251,8020.0,-0.07,0.05,0.58,334.0
252,8053.0,-0.05,0.08,0.58,333.0
253,8085.0,-0.05,0.06,0.57,333.0
254,8118.0,-0.05,0.05,0.58,331.0
255,8150.0,-0.05,0.06,0.58,331.0
256,8181.0,-0.06,0.05,0.58,334.0
257,8214.0,-0.07,0.05,0.58,332.0
258,8246.0,-0.06,0.06,0.58,331.0
259,8279.0,-0.06,0.07,0.59,332.0
260,8310.0,-0.05,0.07,0.58,333.0
261,8343.0,-0.05,0.06,0.57,333.0
262,8375.0,-0.06,0.07,0.58,333.0
263,8408.0,-0.04,0.08,0.6,334.0
264,8439.0,-0.04,0.07,0.58,333.0
265,8472.0,-0.05,0.07,0.58,332.0
266,8504.0,-0.06,0.06,0.58,334.0
267,8537.0,-0.05,0.06,0.59,335.0
268,8568.0,-0.05,0.07,0.58,338.0
269,8600.0,-0.05,0.06,0.59,337.0
270,8633.0,-0.06,0.08,0.59,334.0
271,8665.0,-0.05,0.04,0.57,333.0
272,8697.0,-0.06,0.05,0.59,336.0
273,8729.0,-0.06,0.06,0.58,334.0
274,8762.0,-0.05,0.05,0.58,332.0
275,8794.0,-0.06,0.06,0.57,331.0
276,8826.0,-0.06,0.06,0.58,330.0
277,8858.0,-0.06,0.07,0.59,332.0
278,8891.0,-0.04,0.08,0.61,333.0
279,8923.0,-0.04,0.07,0.59,332.0
280,8955.0,-0.05,0.07,0.58,332.0
281,8987.0,-0.04,0.07,0.59,330.0
282,9020.0,-0.05,0.06,0.58,330.0
283,9052.0,-0.05,0.06,0.57,334.0
284,9083.0,-0.05,0.06,0.59,333.0
285,9116.0,-0.05,0.06,0.59,332.0
286,9148.0,-0.06,0.06,0.58,334.0
287,9181.0,-0.07,0.06,0.58,333.0
288,9212.0,-0.07,0.03,0.57,332.0
289,9245.0,-0.07,0.06,0.59,332.0
290,9277.0,-0.05,0.06,0.57,334.0
291,9310.0,-0.05,0.05,0.58,333.0
292,9341.0,-0.05,0.07,0.59,333.0
293,9374.0,-0.04,0.08,0.59,333.0
294,9406.0,-0.04,0.07,0.58,332.0
295,9439.0,-0.06,0.08,0.59,331.0
296,9470.0,-0.04,0.07,0.6,333.0
297,9502.0,-0.05,0.07,0.59,333.0
298,9535.0,-0.04,0.07,0.58,332.0
299,9567.0,-0.05,0.06,0.59,331.0
300,9600.0,-0.05,0.07,0.59,334.0
301,9631.0,-0.07,0.05,0.57,333.0
302,9664.0,-0.06,0.06,0.58,331.0
303,9696.0,-0.06,0.05,0.58,331.0
304,9729.0,-0.06,0.05,0.58,331.0
305,9760.0,-0.07,0.06,0.57,335.0
306,9793.0,-0.07,0.05,0.57,335.0
307,9825.0,-0.06,0.06,0.58,333.0
308,9858.0,-0.04,0.07,0.59,330.0
309,9889.0,-0.04,0.07,0.57,332.0
310,9922.0,-0.04,0.07,0.58,334.0
311,9954.0,-0.05,0.07,0.59,335.0
312,9986.0,-0.05,0.06,0.59,334.0
313,10018.0,-0.05,0.06,0.57,333.0
314,10050.0,-0.06,0.08,0.58,333.0
315,10083.0,-0.06,0.07,0.59,333.0
316,10115.0,-0.06,0.07,0.59,332.0
317,10147.0,-0.06,0.07,0.59,331.0
318,10179.0,-0.07,0.05,0.57,330.0
319,10212.0,-0.07,0.05,0.57,336.0
320,10245.0,-0.05,0.06,0.57,337.0
321,10276.0,-0.06,0.05,0.59,335.0
322,10309.0,-0.06,0.06,0.58,331.0
323,10341.0,-0.05,0.06,0.58,326.0
324,10374.0,-0.04,0.08,0.57,327.0
325,10405.0,-0.03,0.07,0.58,332.0
326,10438.0,-0.04,0.07,0.57,331.0
327,10470.0,-0.05,0.07,0.59,334.0
328,10503.0,-0.05,0.06,0.58,336.0
329,10534.0,-0.05,0.06,0.57,335.0
330,10567.0,-0.06,0.07,0.59,334.0
331,10599.0,-0.05,0.08,0.6,331.0
332,10632.0,-0.05,0.07,0.58,333.0
333,10663.0,-0.04,0.06,0.58,332.0
334,10696.0,-0.06,0.05,0.58,332.0
335,10728.0,-0.06,0.04,0.57,332.0
336,10761.0,-0.06,0.05,0.58,333.0
337,10792.0,-0.07,0.05,0.58,333.0
338,10825.0,-0.05,0.06,0.58,335.0
339,10857.0,-0.05,0.08,0.59,334.0
340,10890.0,-0.04,0.08,0.6,330.0
341,10921.0,-0.04,0.08,0.59,330.0
342,10954.0,-0.05,0.08,0.59,331.0
343,10986.0,-0.06,0.07,0.58,334.0
344,11019.0,-0.06,0.06,0.58,334.0
345,11051.0,-0.05,0.07,0.57,334.0
346,11083.0,-0.05,0.07,0.58,333.0
347,11115.0,-0.06,0.06,0.58,333.0
348,11148.0,-0.05,0.06,0.59,334.0
349,11180.0,-0.06,0.07,0.58,332.0
350,11212.0,-0.07,0.05,0.57,334.0
351,11244.0,-0.07,0.05,0.57,333.0
352,11277.0,-0.06,0.04,0.58,332.0
353,11309.0,-0.07,0.06,0.58,333.0
354,11341.0,-0.06,0.06,0.59,333.0
355,11373.0,-0.04,0.08,0.59,333.0
356,11406.0,-0.04,0.08,0.6,333.0
357,11438.0,-0.04,0.08,0.59,333.0
358,11470.0,-0.05,0.07,0.59,332.0
359,11502.0,-0.04,0.06,0.59,333.0
360,11535.0,-0.04,0.07,0.58,333.0
361,11567.0,-0.04,0.08,0.59,336.0
362,11599.0,-0.05,0.06,0.58,334.0
363,11631.0,-0.07,0.06,0.58,332.0
364,11664.0,-0.07,0.05,0.58,331.0
365,11696.0,-0.07,0.07,0.58,332.0
366,11728.0,-0.07,0.05,0.58,333.0
367,11761.0,-0.07,0.04,0.57,334.0
368,11793.0,-0.07,0.05,0.56,331.0
369,11826.0,-0.07,0.06,0.57,333.0
370,11857.0,-0.05,0.06,0.57,334.0
371,11890.0,-0.04,0.07,0.59,333.0
372,11922.0,-0.04,0.08,0.58,332.0
373,11955.0,-0.05,0.07,0.59,332.0
374,11986.0,-0.04,0.06,0.58,331.0
375,12019.0,-0.04,0.07,0.59,332.0
376,12051.0,-0.04,0.08,0.59,333.0
377,12084.0,-0.04,0.07,0.6,333.0
378,12115.0,-0.05,0.06,0.57,334.0
379,12148.0,-0.05,0.04,0.57,332.0
380,12180.0,-0.07,0.07,0.6,332.0
381,12213.0,-0.06,0.06,0.56,333.0
382,12244.0,-0.06,0.06,0.57,333.0
383,12277.0,-0.06,0.06,0.58,335.0
384,12309.0,-0.06,0.07,0.58,334.0
385,12342.0,-0.06,0.06,0.58,333.0
386,12374.0,-0.04,0.07,0.58,331.0
387,12406.0,-0.05,0.07,0.6,336.0
388,12438.0,-0.05,0.08,0.59,334.0
389,12471.0,-0.06,0.06,0.58,333.0
390,12503.0,-0.06,0.07,0.57,331.0
391,12535.0,-0.05,0.06,0.58,330.0
392,12567.0,-0.05,0.07,0.57,333.0
393,12600.0,-0.04,0.07,0.58,334.0
394,12632.0,-0.05,0.06,0.57,335.0
395,12664.0,-0.05,0.05,0.58,332.0
396,12696.0,-0.06,0.05,0.58,332.0
397,12729.0,-0.06,0.05,0.57,332.0
398,12761.0,-0.06,0.05,0.57,333.0
399,12793.0,-0.07,0.05,0.57,334.0
400,12825.0,-0.06,0.04,0.56,335.0
401,12858.0,-0.05,0.07,0.57,332.0
402,12890.0,-0.05,0.08,0.59,334.0
403,12922.0,-0.05,0.07,0.59,333.0
404,12954.0,-0.04,0.08,0.6,331.0
405,12987.0,-0.04,0.08,0.59,332.0
406,13019.0,-0.05,0.08,0.59,332.0
407,13051.0,-0.05,0.06,0.58,333.0
408,13083.0,-0.05,0.06,0.58,332.0
409,13116.0,-0.05,0.05,0.58,332.0
410,13148.0,-0.05,0.04,0.56,335.0
411,13180.0,-0.06,0.06,0.58,335.0
412,13212.0,-0.06,0.07,0.58,334.0
413,13245.0,-0.06,0.04,0.57,333.0
414,13277.0,-0.06,0.05,0.58,334.0
415,13309.0,-0.07,0.05,0.58,333.0
416,13342.0,-0.06,0.05,0.56,335.0
417,13374.0,-0.05,0.06,0.58,333.0
418,13407.0,-0.05,0.08,0.58,334.0
419,13438.0,-0.02,0.08,0.59,334.0
420,13471.0,-0.04,0.08,0.6,333.0
421,13503.0,-0.04,0.06,0.57,334.0
422,13536.0,-0.05,0.07,0.59,334.0
423,13568.0,-0.06,0.06,0.59,334.0
424,13600.0,-0.04,0.06,0.58,332.0
425,13632.0,-0.06,0.07,0.58,332.0
426,13665.0,-0.07,0.05,0.58,334.0
427,13697.0,-0.06,0.03,0.57,333.0
428,13729.0,-0.06,0.06,0.58,332.0
429,13761.0,-0.07,0.06,0.57,329.0
430,13794.0,-0.07,0.04,0.57,330.0
431,13826.0,-0.05,0.05,0.56,332.0
432,13858.0,-0.06,0.06,0.57,333.0
433,13890.0,-0.05,0.06,0.59,332.0
434,13923.0,-0.04,0.06,0.57,333.0
435,13955.0,-0.04,0.08,0.58,333.0
436,13987.0,-0.05,0.07,0.58,335.0
437,14019.0,-0.05,0.06,0.58,334.0
438,14052.0,-0.05,0.06,0.57,332.0
439,14084.0,-0.06,0.05,0.56,333.0
440,14116.0,-0.04,0.08,0.58,332.0
441,14148.0,-0.06,0.06,0.59,335.0
442,14181.0,-0.06,0.06,0.6,333.0
443,14213.0,-0.06,0.04,0.58,334.0
444,14245.0,-0.06,0.02,0.56,332.0
445,14277.0,-0.06,0.06,0.58,332.0
446,14310.0,-0.05,0.03,0.56,334.0
447,14342.0,-0.07,0.06,0.57,333.0
448,14374.0,-0.05,0.04,0.57,334.0
449,14406.0,-0.05,0.05,0.58,335.0
450,14439.0,-0.04,0.07,0.57,333.0
451,14471.0,-0.04,0.08,0.58,331.0
452,14503.0,-0.06,0.07,0.58,331.0
453,14535.0,-0.05,0.07,0.59,332.0
454,14568.0,-0.04,0.07,0.57,334.0
455,14600.0,-0.05,0.08,0.6,334.0
456,14632.0,-0.05,0.07,0.6,331.0
457,14664.0,-0.06,0.05,0.58,332.0
458,14697.0,-0.07,0.06,0.57,333.0
459,14729.0,-0.06,0.07,0.59,332.0
460,14761.0,-0.07,0.04,0.58,333.0
461,14793.0,-0.07,0.06,0.58,333.0
462,14826.0,-0.06,0.05,0.57,332.0
463,14858.0,-0.06,0.05,0.58,332.0
464,14891.0,-0.05,0.06,0.56,332.0
465,14922.0,-0.05,0.06,0.58,333.0
466,14955.0,-0.05,0.07,0.57,334.0
467,14988.0,-0.04,0.08,0.6,335.0
468,15020.0,-0.06,0.07,0.58,333.0
469,15052.0,-0.05,0.07,0.59,332.0
470,15084.0,-0.05,0.07,0.6,331.0
471,15117.0,-0.04,0.06,0.57,333.0
472,15149.0,-0.04,0.08,0.59,332.0
473,15181.0,-0.05,0.05,0.59,332.0
474,15213.0,-0.07,0.05,0.58,331.0
475,15246.0,-0.07,0.04,0.58,332.0
476,15278.0,-0.07,0.04,0.56,333.0
477,15310.0,-0.06,0.05,0.57,334.0
478,15342.0,-0.05,0.04,0.57,335.0
479,15375.0,-0.05,0.06,0.57,337.0
480,15407.0,-0.06,0.06,0.57,338.0
481,15439.0,-0.05,0.08,0.61,334.0
482,15471.0,-0.04,0.08,0.59,330.0
483,15504.0,-0.04,0.08,0.59,329.0
484,15536.0,-0.05,0.05,0.58,328.0
485,15568.0,-0.06,0.06,0.59,330.0
486,15600.0,-0.05,0.08,0.59,330.0
487,15633.0,-0.05,0.06,0.57,332.0
488,15665.0,-0.06,0.05,0.57,333.0
489,15697.0,-0.06,0.06,0.57,334.0
490,15729.0,-0.07,0.04,0.59,333.0
491,15762.0,-0.06,0.06,0.57,333.0
492,15794.0,-0.06,0.07,0.59,334.0
493,15826.0,-0.06,0.05,0.57,334.0
494,15858.0,-0.07,0.06,0.58,333.0
495,15891.0,-0.06,0.05,0.58,334.0
496,15923.0,-0.06,0.06,0.57,334.0
497,15955.0,-0.03,0.08,0.58,332.0
498,15987.0,-0.03,0.08,0.59,334.0
499,16020.0,-0.04,0.08,0.59,334.0
500,16052.0,-0.05,0.06,0.58,333.0
501,16084.0,-0.05,0.07,0.6,332.0
502,16116.0,-0.05,0.05,0.58,333.0
503,16149.0,-0.04,0.07,0.58,331.0
504,16181.0,-0.05,0.07,0.59,331.0
505,16214.0,-0.06,0.07,0.6,333.0
506,16245.0,-0.06,0.06,0.59,332.0
507,16278.0,-0.06,0.06,0.59,331.0
508,16310.0,-0.06,0.05,0.57,332.0
509,16343.0,-0.05,0.06,0.58,334.0
510,16374.0,-0.06,0.05,0.58,335.0
511,16407.0,-0.06,0.05,0.58,335.0
512,16439.0,-0.05,0.06,0.59,334.0
513,16472.0,-0.04,0.06,0.56,331.0
514,16504.0,-0.04,0.08,0.6,332.0
515,16536.0,-0.05,0.08,0.58,334.0
516,16569.0,-0.05,0.08,0.58,334.0
517,16601.0,-0.05,0.06,0.57,332.0
518,16633.0,-0.06,0.06,0.58,331.0
519,16665.0,-0.05,0.07,0.58,331.0
520,16698.0,-0.05,0.07,0.59,334.0
521,16730.0,-0.07,0.07,0.58,335.0
522,16762.0,-0.06,0.06,0.58,335.0
523,16794.0,-0.06,0.05,0.58,332.0
524,16827.0,-0.06,0.06,0.57,331.0
525,16859.0,-0.06,0.06,0.58,332.0
526,16891.0,-0.06,0.07,0.59,334.0
527,16923.0,-0.06,0.07,0.59,333.0
528,16956.0,-0.05,0.06,0.59,332.0
529,16988.0,-0.05,0.07,0.58,333.0
530,17020.0,-0.05,0.07,0.58,333.0
531,17052.0,-0.04,0.07,0.58,333.0
532,17085.0,-0.05,0.08,0.59,333.0
533,17117.0,-0.05,0.06,0.59,333.0
534,17149.0,-0.05,0.07,0.6,332.0
535,17181.0,-0.05,0.06,0.59,332.0
536,17214.0,-0.05,0.05,0.58,333.0
537,17246.0,-0.07,0.05,0.57,334.0
538,17278.0,-0.06,0.05,0.57,335.0
539,17310.0,-0.05,0.05,0.59,333.0
540,17343.0,-0.05,0.07,0.58,332.0
541,17375.0,-0.06,0.05,0.58,332.0
542,17408.0,-0.06,0.06,0.58,333.0
543,17439.0,-0.05,0.05,0.6,334.0
544,17472.0,-0.06,0.06,0.57,332.0
545,17504.0,-0.05,0.07,0.59,332.0
546,17537.0,-0.04,0.07,0.58,331.0
547,17568.0,-0.05,0.08,0.59,333.0
548,17601.0,-0.04,0.08,0.6,334.0
549,17633.0,-0.06,0.06,0.57,334.0
550,17666.0,-0.04,0.07,0.59,334.0
551,17697.0,-0.05,0.08,0.59,333.0
552,17730.0,-0.05,0.07,0.59,331.0
553,17762.0,-0.06,0.06,0.58,331.0
554,17795.0,-0.06,0.07,0.58,332.0
555,17826.0,-0.06,0.07,0.59,333.0
556,17859.0,-0.06,0.06,0.59,332.0
557,17891.0,-0.06,0.05,0.57,332.0
558,17924.0,-0.06,0.05,0.58,335.0
559,17955.0,-0.05,0.06,0.58,334.0
560,17988.0,-0.04,0.08,0.58,333.0
561,18020.0,-0.04,0.06,0.57,331.0
562,18053.0,-0.04,0.07,0.59,332.0
563,18084.0,-0.06,0.06,0.57,332.0
564,18117.0,-0.05,0.08,0.58,333.0
565,18150.0,-0.05,0.08,0.58,335.0
566,18182.0,-0.04,0.07,0.59,336.0
567,18214.0,-0.05,0.06,0.6,333.0
568,18246.0,-0.06,0.07,0.58,332.0
569,18279.0,-0.06,0.06,0.58,332.0
570,18311.0,-0.06,0.05,0.58,333.0
571,18343.0,-0.07,0.04,0.58,334.0
572,18375.0,-0.06,0.04,0.57,334.0
573,18408.0,-0.06,0.05,0.58,334.0
574,18440.0,-0.07,0.06,0.58,334.0
575,18472.0,-0.03,0.06,0.57,334.0
576,18504.0,-0.04,0.08,0.59,335.0
577,18537.0,-0.05,0.07,0.59,334.0
578,18569.0,-0.04,0.07,0.58,334.0
579,18601.0,-0.05,0.08,0.59,334.0
580,18633.0,-0.04,0.07,0.57,333.0
581,18666.0,-0.05,0.07,0.57,333.0
582,18698.0,-0.05,0.07,0.59,335.0
583,18731.0,-0.05,0.07,0.59,333.0
584,18762.0,-0.06,0.06,0.58,332.0
585,18795.0,-0.05,0.06,0.56,328.0
586,18827.0,-0.06,0.06,0.58,328.0
587,18860.0,-0.06,0.06,0.58,332.0
588,18891.0,-0.07,0.05,0.59,335.0
589,18924.0,-0.08,0.06,0.59,335.0
590,18956.0,-0.06,0.05,0.59,335.0
591,18989.0,-0.06,0.08,0.59,334.0
592,19020.0,-0.04,0.07,0.57,331.0
593,19053.0,-0.03,0.07,0.59,334.0
594,19085.0,-0.04,0.08,0.6,334.0
595,19118.0,-0.05,0.05,0.57,332.0
596,19149.0,-0.05,0.06,0.59,331.0
597,19182.0,-0.05,0.07,0.58,331.0
598,19214.0,-0.05,0.06,0.59,332.0
599,19247.0,-0.06,0.05,0.59,333.0
600,19278.0,-0.06,0.06,0.58,332.0
601,19311.0,-0.06,0.06,0.58,332.0
